time,voltage
0.0,0.0
0.00014285714285714287,0.08522582702224778
0.00028571428571428574,0.17017601705105506
0.0004285714285714286,0.2545759545368644
0.0005714285714285715,0.3381530628798446
0.0007142857142857144,0.4206378140750381
0.0008571428571428572,0.5017647266048623
0.001,0.5812733477329244
0.001142857142857143,0.6589092164140411
0.0012857142857142859,0.7344248031110643
0.0014285714285714288,0.8075804228993224
0.0015714285714285715,0.878145118343806
0.0017142857142857144,0.9458975087522921
0.0018571428571428573,1.010626602538898
0.002,1.0721325695766228
0.002142857142857143,1.130227470573656
0.002285714285714286,1.1847359406760232
0.002428571428571429,1.23549582467785
0.0025714285714285717,1.2823587614094103
0.0027142857142857147,1.3251907150714999
0.0028571428571428576,1.3638724514917127
0.003,1.3982999574931188
0.003142857142857143,1.4283848017877803
0.003285714285714286,1.4540544360356378
0.003428571428571429,1.4752524349426603
0.0035714285714285718,1.4919386745098506
0.0037142857142857147,1.5040894477858089
0.0038571428571428576,1.511697517719138
0.004,1.5147721069520637
0.0041428571428571434,1.513338824642274
0.004285714285714286,1.507439530645214
0.004428571428571429,1.4971321376329048
0.004571428571428572,1.4824903519668842
0.004714285714285714,1.463603354381088
0.004857142857142858,1.4405754217645155
0.005,1.4135254915624211
0.0051428571428571435,1.3825866705376226
0.005285714285714286,1.3479056898494979
0.005428571428571429,1.309642308616449
0.005571428571428572,1.2679686683272746
0.005714285714285715,1.2230686006572065
0.005857142857142858,1.1751368914246099
0.006,1.1243785035937557
0.0061428571428571435,1.0710077623871033
0.006285714285714286,1.0152475057164119
0.006428571428571429,0.9573282032752995
0.006571428571428572,0.8974870477559869
0.006714285714285715,0.8359670217594438
0.006857142857142858,0.773015944060639
0.007,0.7088854989686186
0.0071428571428571435,0.6438302525845179
0.007285714285714286,0.5781066598090189
0.007428571428571429,0.5119720659840373
0.007571428571428572,0.44568370707146554
0.007714285714285715,0.3794977122744939
0.007857142857142858,0.3136681129944189
0.008,0.24844586198795252
0.008142857142857143,0.18407786654700894
0.008285714285714287,0.12080603946490133
0.00842857142857143,0.058866371480132004
0.008571428571428572,-0.00151197119830411
0.008714285714285714,-0.06010752078148786
0.008857142857142859,-0.11670734981946486
0.009000000000000001,-0.17110787788918325
0.009142857142857144,-0.22311563993323902
0.009285714285714286,-0.2725480132843697
0.009428571428571429,-0.31923390057543166
0.009571428571428573,-0.3630143659102601
0.009714285714285715,-0.4037432218567212
0.009857142857142858,-0.44128756501866573
0.01,-0.4755282581475767
0.010142857142857144,-0.5063603569667169
0.010285714285714287,-0.5336934800996533
0.01042857142857143,-0.5574521207203103
0.010571428571428572,-0.5775758987722718
0.010714285714285714,-0.5940197528400534
0.010857142857142859,-0.6067540709935101
0.011000000000000001,-0.6157647601675357
0.011142857142857144,-0.6210532538817822
0.011285714285714286,-0.622636458348319
0.01142857142857143,-0.6205466372580137
0.011571428571428573,-0.6148312357779849
0.011714285714285715,-0.6055526445318065
0.011857142857142858,-0.5927879045702783
0.012,-0.576628354572615
0.012142857142857144,-0.5571792217448883
0.012285714285714287,-0.5345591581036432
0.01242857142857143,-0.5088997240468883
0.012571428571428572,-0.480344821321316
0.012714285714285714,-0.4490500776928019
0.012857142857142859,-0.4151821858162223
0.013000000000000001,-0.37891819897964096
0.013142857142857144,-0.3404447865662408
0.013285714285714286,-0.2999574522344275
0.01342857142857143,-0.2576597179615644
0.013571428571428573,-0.21376227722938027
0.013714285714285715,-0.16848212074860247
0.013857142857142858,-0.12204163822642147
0.014,-0.07466769977247756
0.014142857142857145,-0.026590720616950198
0.014285714285714287,0.021956287122414098
0.01442857142857143,0.07073867183903304
0.014571428571428572,0.11952110518318537
0.014714285714285716,0.16806854631758064
0.014857142857142859,0.21614720384251465
0.015000000000000001,0.26352549156242094
0.015142857142857144,0.30997497429279003
0.015285714285714286,0.355271299948676
0.01542857142857143,0.3991951142131047
0.015571428571428573,0.4415329541553859
0.015714285714285715,0.48207811725542654
0.015857142857142858,0.5206315023901522
0.016,0.5570024194518102
0.016142857142857143,0.5910093643946858
0.016285714285714285,0.6224807566461885
0.01642857142857143,0.6512556359697212
0.016571428571428574,0.6771843160297162
0.016714285714285716,0.7001289920829917
0.01685714285714286,0.7199643004044681
0.017,0.7365778272486054
0.017142857142857144,0.749870565349831
0.017285714285714286,0.7597573161749973
0.01742857142857143,0.7661670363576507
0.01757142857142857,0.7690431269667705
0.017714285714285717,0.7683436644907816
0.01785714285714286,0.7640415726500962
0.018000000000000002,0.7561247343873495
0.018142857142857145,0.7445960436228624
0.018285714285714287,0.7294733966027815
0.01842857142857143,0.7107896229078605
0.018571428571428572,0.6885923564309708
0.018714285714285715,0.6629438468702711
0.018857142857142857,0.6339207125215145
0.019000000000000003,0.6016136353863377
0.019142857142857145,0.5661269998426196
0.019285714285714288,0.5275784763471856
0.01942857142857143,0.4860985518594505
0.019571428571428573,0.4418300088860759
0.019714285714285715,0.3949273552505992
0.019857142857142858,0.34555620688747984
0.02,0.2938926261462368
0.020142857142857143,0.24012241826769615
0.02028571428571429,0.1844403888600446
0.02042857142857143,0.1270495653568168
0.020571428571428574,0.0681603855814035
0.020714285714285716,0.007989856672778524
0.02085714285714286,-0.053239312255837834
0.021,-0.11529960024999213
0.021142857142857144,-0.1779595838735021
0.021285714285714286,-0.24098486215370082
0.02142857142857143,-0.3041389934105029
0.021571428571428575,-0.36718444022106517
0.021714285714285717,-0.42988351874031283
0.02185714285714286,-0.49199934858121996
0.022000000000000002,-0.5532967994573676
0.022142857142857145,-0.6135434308041332
0.022285714285714287,-0.6725104206236658
0.02242857142857143,-0.7299734798425677
0.022571428571428572,-0.7857137485297214
0.022714285714285715,-0.8395186703947115
0.02285714285714286,-0.8911828420745935
0.023000000000000003,-0.9405088338178267
0.023142857142857146,-0.9873079782888902
0.023285714285714288,-1.0314011243446517
0.02342857142857143,-1.0726193527737573
0.023571428571428573,-1.11080465114239
0.023714285714285716,-1.1458105450531835
0.023857142857142858,-1.1775026832982394
0.024,-1.2057593745713333
0.024142857142857143,-1.2304720735978285
0.02428571428571429,-1.2515458147427565
0.02442857142857143,-1.2688995913671313
0.024571428571428574,-1.282466679419109
0.024714285714285716,-1.2921949039690905
0.02485714285714286,-1.2980468476255191
0.025,-1.3
0.025142857142857144,-1.2980468476255191
0.025285714285714286,-1.2921949039690908
0.02542857142857143,-1.2824666794191093
0.025571428571428575,-1.2688995913671308
0.025714285714285717,-1.2515458147427558
0.02585714285714286,-1.2304720735978283
0.026000000000000002,-1.2057593745713329
0.026142857142857145,-1.1775026832982398
0.026285714285714287,-1.1458105450531841
0.02642857142857143,-1.1108046511423904
0.026571428571428572,-1.072619352773758
0.026714285714285715,-1.0314011243446521
0.02685714285714286,-0.9873079782888899
0.027000000000000003,-0.9405088338178261
0.027142857142857146,-0.891182842074593
0.027285714285714288,-0.8395186703947111
0.02742857142857143,-0.785713748529721
0.027571428571428573,-0.7299734798425689
0.027714285714285716,-0.6725104206236668
0.027857142857142858,-0.6135434308041342
0.028,-0.5532967994573688
0.028142857142857147,-0.4919993485812192
0.02828571428571429,-0.4298835187403123
0.02842857142857143,-0.36718444022106467
0.028571428571428574,-0.3041389934105041
0.028714285714285716,-0.24098486215370035
0.02885714285714286,-0.17795958387350186
0.029,-0.11529960024999136
0.029142857142857144,-0.053239312255839
0.029285714285714286,0.007989856672777525
0.029428571428571432,0.06816038558140394
0.029571428571428575,0.12704956535681708
0.029714285714285717,0.18444038886004496
0.02985714285714286,0.24012241826769518
0.030000000000000002,0.29389262614623574
0.030142857142857145,0.3455562068874786
0.030285714285714287,0.3949273552505991
0.03042857142857143,0.4418300088860763
0.030571428571428572,0.48609855185945067
0.03071428571428572,0.5275784763471856
0.03085714285714286,0.5661269998426197
0.031000000000000003,0.6016136353863375
0.031142857142857146,0.6339207125215136
0.031285714285714285,0.6629438468702697
0.03142857142857143,0.68859235643097
0.03157142857142858,0.7107896229078604
0.031714285714285716,0.7294733966027809
0.03185714285714286,0.744596043622862
0.032,0.7561247343873494
0.03214285714285715,0.7640415726500958
0.032285714285714286,0.7683436644907812
0.03242857142857143,0.7690431269667699
0.03257142857142857,0.7661670363576505
0.03271428571428572,0.7597573161749971
0.03285714285714286,0.7498705653498307
0.033,0.7365778272486051
0.03314285714285715,0.7199643004044678
0.03328571428571429,0.7001289920829908
0.03342857142857143,0.6771843160297153
0.03357142857142857,0.6512556359697208
0.03371428571428572,0.6224807566461882
0.033857142857142856,0.5910093643946865
0.034,0.55700241945181
0.03414285714285715,0.5206315023901514
0.03428571428571429,0.48207811725542704
0.03442857142857143,0.44153295415538507
0.03457142857142857,0.3991951142131054
0.03471428571428572,0.3552712999486759
0.03485714285714286,0.3099749742927897
0.035,0.26352549156241983
0.03514285714285714,0.2161472038425151
0.03528571428571429,0.16806854631757967
0.035428571428571434,0.11952110518318337
0.03557142857142857,0.07073867183903268
0.03571428571428572,0.021956287122413126
0.03585714285714286,-0.02659072061694967
0.036000000000000004,-0.07466769977247753
0.03614285714285714,-0.12204163822642033
0.03628571428571429,-0.16848212074860228
0.03642857142857143,-0.21376227722937824
0.036571428571428574,-0.257659717961565
0.03671428571428572,-0.2999574522344274
0.03685714285714286,-0.3404447865662408
0.037000000000000005,-0.3789181989796407
0.037142857142857144,-0.41518218581622224
0.03728571428571429,-0.4490500776928006
0.03742857142857143,-0.48034482132131495
0.037571428571428575,-0.5088997240468895
0.037714285714285714,-0.5345591581036424
0.03785714285714286,-0.5571792217448892
0.038000000000000006,-0.5766283545726153
0.038142857142857145,-0.5927879045702783
0.03828571428571429,-0.6055526445318062
0.03842857142857143,-0.6148312357779852
0.038571428571428576,-0.6205466372580136
0.038714285714285715,-0.622636458348319
0.03885714285714286,-0.6210532538817822
0.039,-0.6157647601675356
0.039142857142857146,-0.60675407099351
0.03928571428571429,-0.5940197528400529
0.03942857142857143,-0.5775758987722716
0.03957142857142858,-0.5574521207203099
0.039714285714285716,-0.5336934800996532
0.03985714285714286,-0.5063603569667166
0.04,-0.4755282581475771
0.04014285714285715,-0.44128756501866573
0.040285714285714286,-0.40374322185672157
0.04042857142857143,-0.3630143659102589
0.04057142857142858,-0.319233900575431
0.04071428571428572,-0.2725480132843689
0.04085714285714286,-0.22311563993323816
0.041,-0.17110787788918272
0.04114285714285715,-0.11670734981946422
0.04128571428571429,-0.06010752078148804
0.04142857142857143,-0.0015119711983045403
0.04157142857142857,0.058866371480131185
0.04171428571428572,0.12080603946490046
0.041857142857142864,0.18407786654701036
0.042,0.248445861987954
0.04214285714285715,0.31366811299442
0.04228571428571429,0.3794977122744951
0.042428571428571434,0.4456837070714662
0.04257142857142857,0.5119720659840377
0.04271428571428572,0.5781066598090187
0.04285714285714286,0.643830252584517
0.043000000000000003,0.7088854989686174
0.04314285714285715,0.7730159440606417
0.04328571428571429,0.8359670217594425
0.043428571428571434,0.8974870477559884
0.04357142857142857,0.957328203275301
0.04371428571428572,1.0152475057164125
0.04385714285714286,1.071007762387104
0.044000000000000004,1.1243785035937557
0.04414285714285714,1.1751368914246099
0.04428571428571429,1.2230686006572062
0.044428571428571435,1.2679686683272764
0.044571428571428574,1.3096423086164481
0.04471428571428572,1.3479056898494988
0.04485714285714286,1.3825866705376213
0.045000000000000005,1.4135254915624218
0.045142857142857144,1.440575421764516
0.04528571428571429,1.4636033543810878
0.04542857142857143,1.4824903519668846
0.045571428571428575,1.497132137632905
0.04571428571428572,1.5074395306452149
0.04585714285714286,1.5133388246422739
0.046000000000000006,1.5147721069520639
0.046142857142857145,1.5116975177191383
0.04628571428571429,1.504089447785809
0.04642857142857143,1.4919386745098506
0.046571428571428576,1.4752524349426601
0.046714285714285715,1.4540544360356382
0.04685714285714286,1.428384801787781
0.047,1.3982999574931194
0.047142857142857146,1.363872451491713
0.04728571428571429,1.325190715071499
0.04742857142857143,1.2823587614094114
0.04757142857142858,1.2354958246778485
0.047714285714285716,1.1847359406760245
0.04785714285714286,1.1302274705736552
0.048,1.0721325695766222
0.04814285714285715,1.0106266025388972
0.048285714285714286,0.9458975087522927
0.04842857142857143,0.8781451183438066
0.04857142857142858,0.8075804228993197
0.04871428571428572,0.7344248031110651
0.04885714285714286,0.6589092164140388
0.049,0.5812733477329264
0.04914285714285715,0.501764726604861
0.04928571428571429,0.4206378140750405
0.04942857142857143,0.3381530628798438
0.04957142857142857,0.254575954536865
0.04971428571428572,0.1701760170510555
0.049857142857142864,0.08522582702224361
0.05,8.081430913099353e-16
0.05014285714285715,-0.08522582702225032
0.05028571428571429,-0.17017601705105298
0.050428571428571434,-0.25457595453686654
0.05057142857142857,-0.3381530628798422
0.05071428571428572,-0.420637814075039
0.05085714285714286,-0.5017647266048587
0.051000000000000004,-0.581273347732925
0.05114285714285715,-0.6589092164140418
0.05128571428571429,-0.7344248031110637
0.051428571428571435,-0.8075804228993249
0.051571428571428574,-0.8781451183438054
0.05171428571428572,-0.9458975087522942
0.05185714285714286,-1.0106266025388961
0.052000000000000005,-1.0721325695766237
0.052142857142857144,-1.1302274705736544
0.05228571428571429,-1.184735940676024
0.052428571428571435,-1.2354958246778502
0.052571428571428575,-1.2823587614094096
0.05271428571428572,-1.3251907150714994
0.05285714285714286,-1.3638724514917122
0.053000000000000005,-1.3982999574931196
0.053142857142857144,-1.4283848017877796
0.05328571428571429,-1.4540544360356376
0.05342857142857143,-1.47525243494266
0.053571428571428575,-1.4919386745098506
0.05371428571428572,-1.504089447785809
0.05385714285714286,-1.511697517719138
0.054000000000000006,-1.5147721069520643
0.054142857142857145,-1.5133388246422743
0.05428571428571429,-1.5074395306452144
0.05442857142857143,-1.4971321376329052
0.054571428571428576,-1.4824903519668837
0.054714285714285715,-1.4636033543810885
0.05485714285714286,-1.4405754217645148
0.05500000000000001,-1.4135254915624205
0.055142857142857146,-1.3825866705376222
0.05528571428571429,-1.3479056898494979
0.05542857142857143,-1.3096423086164493
0.05557142857142858,-1.2679686683272748
0.055714285714285716,-1.2230686006572076
0.05585714285714286,-1.175136891424611
0.056,-1.1243785035937568
0.05614285714285715,-1.0710077623871017
0.05628571428571429,-1.0152475057164108
0.05642857142857143,-0.957328203275299
0.05657142857142858,-0.8974870477559861
0.05671428571428572,-0.8359670217594435
0.05685714285714286,-0.7730159440606392
0.057,-0.7088854989686189
0.05714285714285715,-0.6438302525845183
0.05728571428571429,-0.5781066598090199
0.05742857142857143,-0.5119720659840352
0.05757142857142858,-0.4456837070714642
0.05771428571428572,-0.3794977122744926
0.057857142857142864,-0.3136681129944179
0.058,-0.24844586198795215
0.05814285714285715,-0.1840778665470083
0.05828571428571429,-0.12080603946490187
0.058428571428571434,-0.058866371480132546
0.05857142857142857,0.0015119711983032497
0.05871428571428572,0.06010752078148707
0.058857142857142865,0.11670734981946632
0.059000000000000004,0.17110787788918427
0.05914285714285715,0.22311563993324
0.05928571428571429,0.27254801328437034
0.059428571428571435,0.3192339005754328
0.059571428571428574,0.36301436591026004
0.05971428571428572,0.4037432218567213
0.05985714285714286,0.4412875650186654
0.060000000000000005,0.475528258147577
0.06014285714285715,0.5063603569667174
0.06028571428571429,0.5336934800996536
0.060428571428571436,0.5574521207203108
0.060571428571428575,0.5775758987722721
0.06071428571428572,0.5940197528400534
0.06085714285714286,0.6067540709935099
0.061000000000000006,0.6157647601675358
0.061142857142857145,0.6210532538817817
0.06128571428571429,0.6226364583483192
0.06142857142857144,0.6205466372580135
0.061571428571428576,0.6148312357779859
0.06171428571428572,0.6055526445318062
0.06185714285714286,0.592787904570279
0.062000000000000006,0.5766283545726147
0.062142857142857146,0.5571792217448882
0.06228571428571429,0.5345591581036435
0.06242857142857143,0.508899724046888
0.06257142857142857,0.48034482132131817
0.06271428571428572,0.4490500776927998
0.06285714285714286,0.4151821858162239
0.063,0.3789181989796419
0.06314285714285715,0.34044478656623967
0.06328571428571429,0.2999574522344264
0.06342857142857143,0.2576597179615667
0.06357142857142857,0.2137622772293819
0.06371428571428572,0.16848212074860258
0.06385714285714286,0.1220416382264218
0.064,0.07466769977247714
0.06414285714285715,0.026590720616948116
0.0642857142857143,-0.021956287122416873
0.06442857142857143,-0.07073867183903126
0.06457142857142857,-0.11952110518318426
0.06471428571428572,-0.16806854631758125
0.06485714285714286,-0.21614720384251584
0.065,-0.263525491562422
0.06514285714285714,-0.30997497429278753
0.0652857142857143,-0.3552712999486759
0.06542857142857143,-0.39919511421310466
0.06557142857142857,-0.44153295415538574
0.06571428571428573,-0.4820781172554282
0.06585714285714286,-0.5206315023901542
0.066,-0.5570024194518096
0.06614285714285714,-0.591009364394685
0.0662857142857143,-0.6224807566461891
0.06642857142857143,-0.6512556359697218
0.06657142857142857,-0.6771843160297171
0.06671428571428573,-0.7001289920829934
0.06685714285714286,-0.7199643004044692
0.067,-0.7365778272486054
0.06714285714285714,-0.7498705653498314
0.0672857142857143,-0.7597573161749986
0.06742857142857143,-0.7661670363576513
0.06757142857142857,-0.7690431269667708
0.06771428571428571,-0.7683436644907816
0.06785714285714287,-0.7640415726500971
0.068,-0.7561247343873501
0.06814285714285714,-0.7445960436228631
0.0682857142857143,-0.7294733966027811
0.06842857142857144,-0.7107896229078603
0.06857142857142857,-0.6885923564309717
0.06871428571428571,-0.6629438468702723
0.06885714285714287,-0.6339207125215135
0.069,-0.6016136353863378
0.06914285714285714,-0.566126999842621
0.0692857142857143,-0.5275784763471831
0.06942857142857144,-0.48609855185945133
0.06957142857142858,-0.44183000888607715
0.06971428571428571,-0.39492735525059974
0.06985714285714287,-0.3455562068874779
0.07,-0.29389262614623546
0.07014285714285715,-0.24012241826769704
0.07028571428571428,-0.18444038886004724
0.07042857142857144,-0.12704956535681652
0.07057142857142858,-0.0681603855814033
0.07071428571428572,-0.007989856672781182
0.07085714285714287,0.053239312255841775
0.07100000000000001,0.1152996002499914
0.07114285714285715,0.17795958387350058
0.07128571428571429,0.2409848621536998
0.07142857142857144,0.304138993410505
0.07157142857142858,0.3671844402210661
0.07171428571428572,0.42988351874031006
0.07185714285714287,0.4919993485812239
0.07200000000000001,0.5532967994573683
0.07214285714285715,0.6135434308041341
0.07228571428571429,0.6725104206236632
0.07242857142857144,0.7299734798425714
0.07257142857142858,0.7857137485297206
0.07271428571428572,0.8395186703947106
0.07285714285714286,0.8911828420745882
0.07300000000000001,0.9405088338178242
0.07314285714285715,0.9873079782888908
0.07328571428571429,1.0314011243446495
