time,voltage
0.0,0.0
0.001,3.1395259764656687
0.002,6.266661678215213
0.003,9.369065729286232
0.004,12.43449435824274
0.005,15.450849718747369
0.006,18.4062276342339
0.007,21.288964578253633
0.008,24.087683705085766
0.009000000000000001,26.791339748949834
0.01,29.389262614623657
0.011,31.87119948743448
0.012,34.22735529643444
0.013000000000000001,36.448431371070576
0.014,38.525662138789464
0.015,40.45084971874737
0.016,42.216396275100756
0.017,43.81533400219318
0.018000000000000002,45.241352623300976
0.019,46.48882429441257
0.02,47.552825814757675
0.021,48.429158056431554
0.022,49.11436253643443
0.023,49.60573506572389
0.024,49.901336421413575
0.025,50.0
0.026000000000000002,49.901336421413575
0.027,49.60573506572389
0.028,49.114362536434435
0.029,48.429158056431554
0.03,47.55282581475768
0.031,46.488824294412574
0.032,45.241352623300976
0.033,43.815334002193175
0.034,42.21639627510075
0.035,40.45084971874737
0.036000000000000004,38.525662138789464
0.037,36.44843137107059
0.038,34.22735529643444
0.039,31.87119948743449
0.04,29.38926261462366
0.041,26.791339748949834
0.042,24.08768370508576
0.043000000000000003,21.288964578253626
0.044,18.406227634233908
0.045,15.450849718747376
0.046,12.434494358242741
0.047,9.369065729286229
0.048,6.266661678215205
0.049,3.139525976465679
0.05,6.123233995736766e-15
0.051000000000000004,-3.1395259764656673
0.052000000000000005,-6.266661678215215
0.053,-9.369065729286216
0.054,-12.434494358242729
0.055,-15.450849718747364
0.056,-18.406227634233897
0.057,-21.288964578253633
0.058,-24.08768370508577
0.059000000000000004,-26.791339748949838
0.06,-29.38926261462365
0.061,-31.87119948743448
0.062,-34.22735529643444
0.063,-36.44843137107057
0.064,-38.52566213878947
0.065,-40.450849718747364
0.066,-42.21639627510076
0.067,-43.81533400219318
0.068,-45.24135262330099
0.069,-46.488824294412574
0.07,-47.552825814757675
0.07100000000000001,-48.42915805643156
0.07200000000000001,-49.114362536434435
0.073,-49.60573506572389
0.074,-49.901336421413575
0.075,-50.0
0.076,-49.901336421413575
0.077,-49.60573506572389
0.078,-49.114362536434435
0.079,-48.429158056431554
0.08,-47.55282581475768
0.081,-46.48882429441256
0.082,-45.241352623300976
0.083,-43.81533400219317
0.084,-42.21639627510075
0.085,-40.45084971874738
0.08600000000000001,-38.52566213878945
0.08700000000000001,-36.448431371070576
0.088,-34.227355296434446
0.089,-31.871199487434517
0.09,-29.389262614623668
0.091,-26.791339748949856
0.092,-24.087683705085766
0.093,-21.28896457825365
0.094,-18.406227634233893
0.095,-15.450849718747383
0.096,-12.434494358242725
0.097,-9.369065729286234
0.098,-6.2666616782152325
0.099,-3.1395259764656633
0.1,-1.2246467991473532e-14
0.101,3.1395259764656833
0.10200000000000001,6.2666616782152085
0.10300000000000001,9.369065729286254
0.10400000000000001,12.434494358242745
0.105,15.450849718747358
0.106,18.40622763423387
0.107,21.288964578253626
0.108,24.087683705085745
0.109,26.791339748949834
0.11,29.389262614623647
0.111,31.8711994874345
0.112,34.22735529643443
0.113,36.44843137107056
0.114,38.525662138789464
0.115,40.450849718747364
0.116,42.216396275100756
0.117,43.81533400219318
0.11800000000000001,45.24135262330098
0.11900000000000001,46.488824294412574
0.12,47.552825814757675
0.121,48.42915805643155
0.122,49.11436253643443
0.123,49.60573506572389
0.124,49.901336421413575
0.125,50.0
0.126,49.901336421413575
0.127,49.60573506572389
0.128,49.11436253643443
0.129,48.429158056431554
0.13,47.55282581475768
0.131,46.48882429441258
0.132,45.24135262330096
0.133,43.81533400219317
0.134,42.216396275100756
0.135,40.45084971874738
0.136,38.52566213878943
0.137,36.44843137107055
0.138,34.22735529643442
0.139,31.871199487434488
0.14,29.389262614623668
0.14100000000000001,26.79133974894978
0.14200000000000002,24.087683705085734
0.14300000000000002,21.288964578253616
0.14400000000000002,18.4062276342339
0.145,15.450849718747389
0.146,12.434494358242775
0.147,9.369065729286284
0.148,6.266661678215284
0.149,3.1395259764656696
0.15,1.8369701987210297e-14
0.151,-3.1395259764656327
0.152,-6.266661678215159
0.153,-9.369065729286161
0.154,-12.434494358242738
0.155,-15.450849718747353
0.156,-18.40622763423386
0.157,-21.288964578253584
0.158,-24.087683705085777
0.159,-26.791339748949827
0.16,-29.38926261462364
0.161,-31.87119948743446
0.162,-34.22735529643446
0.163,-36.44843137107059
0.164,-38.52566213878946
0.165,-40.450849718747364
0.166,-42.216396275100784
0.167,-43.8153340021932
0.168,-45.24135262330098
0.169,-46.48882429441257
0.17,-47.55282581475767
0.171,-48.42915805643157
0.17200000000000001,-49.11436253643444
0.17300000000000001,-49.60573506572389
0.17400000000000002,-49.901336421413575
0.17500000000000002,-50.0
0.176,-49.901336421413575
0.177,-49.6057350657239
0.178,-49.11436253643445
0.179,-48.42915805643156
0.18,-47.55282581475769
0.181,-46.48882429441258
0.182,-45.241352623301
0.183,-43.81533400219322
0.184,-42.216396275100756
0.185,-40.450849718747385
0.186,-38.52566213878949
0.187,-36.44843137107062
0.188,-34.227355296434425
0.189,-31.871199487434488
0.19,-29.389262614623675
0.191,-26.791339748949866
0.192,-24.087683705085738
0.193,-21.288964578253623
0.194,-18.406227634233904
0.195,-15.450849718747396
0.196,-12.43449435824278
0.197,-9.369065729286202
0.198,-6.2666616782152005
0.199,-3.1395259764656758
0.2,-2.4492935982947064e-14
0.201,3.1395259764657153
0.202,6.2666616782152404
0.203,9.369065729286243
0.20400000000000001,12.434494358242732
0.20500000000000002,15.450849718747431
0.20600000000000002,18.40622763423394
0.20700000000000002,21.28896457825366
0.20800000000000002,24.087683705085773
0.209,26.79133974894975
0.21,29.389262614623636
0.211,31.871199487434453
0.212,34.22735529643439
0.213,36.44843137107052
0.214,38.52566213878946
0.215,40.45084971874736
0.216,42.216396275100735
0.217,43.815334002193154
0.218,45.241352623300976
0.219,46.48882429441257
0.22,47.55282581475767
0.221,48.42915805643154
0.222,49.11436253643444
0.223,49.60573506572389
0.224,49.901336421413575
0.225,50.0
0.226,49.90133642141358
0.227,49.60573506572389
0.228,49.11436253643443
0.229,48.42915805643156
0.23,47.55282581475769
0.231,46.48882429441256
0.232,45.24135262330097
0.233,43.815334002193175
0.234,42.216396275100756
0.23500000000000001,40.450849718747335
0.23600000000000002,38.525662138789436
0.23700000000000002,36.448431371070555
0.23800000000000002,34.22735529643443
0.23900000000000002,31.87119948743449
0.24,29.38926261462368
0.241,26.791339748949873
0.242,24.087683705085823
0.243,21.288964578253708
0.244,18.40622763423391
0.245,15.450849718747401
0.246,12.434494358242786
0.247,9.369065729286296
0.248,6.266661678215208
0.249,3.139525976465681
0.25,3.061616997868383e-14
0.251,-3.1395259764656203
0.252,-6.266661678215146
0.253,-9.369065729286236
0.254,-12.434494358242725
0.255,-15.450849718747426
0.256,-18.406227634233936
0.257,-21.28896457825365
0.258,-24.087683705085766
0.259,-26.791339748949817
0.26,-29.38926261462363
0.261,-31.87119948743445
0.262,-34.22735529643438
0.263,-36.44843137107064
0.264,-38.52566213878951
0.265,-40.450849718747406
0.266,-42.21639627510078
0.267,-43.81533400219319
0.268,-45.241352623300976
0.269,-46.48882429441257
0.27,-47.55282581475767
0.271,-48.42915805643154
0.272,-49.114362536434456
0.273,-49.605735065723906
0.274,-49.90133642141358
0.275,-50.0
0.276,-49.901336421413575
0.277,-49.60573506572389
0.278,-49.114362536434435
0.279,-48.42915805643156
0.28,-47.55282581475769
0.281,-46.488824294412524
0.28200000000000003,-45.241352623300926
0.28300000000000003,-43.81533400219313
0.28400000000000003,-42.21639627510071
0.28500000000000003,-40.45084971874734
0.28600000000000003,-38.52566213878944
0.28700000000000003,-36.44843137107057
0.28800000000000003,-34.22735529643443
0.289,-31.8711994874345
0.29,-29.389262614623686
0.291,-26.791339748949877
0.292,-24.087683705085826
0.293,-21.288964578253715
0.294,-18.406227634234
0.295,-15.45084971874749
0.296,-12.434494358242878
0.297,-9.36906572928639
0.298,-6.266661678215213
0.299,-3.1395259764656873
0.3,-3.6739403974420595e-14
0.301,3.1395259764656145
0.302,6.266661678215141
0.303,9.369065729286143
0.304,12.434494358242635
0.305,15.45084971874725
0.306,18.406227634233762
0.307,21.288964578253648
0.308,24.08768370508576
0.309,26.791339748949817
0.31,29.389262614623625
0.311,31.871199487434442
0.312,34.22735529643438
0.313,36.44843137107051
0.314,38.52566213878939
0.315,40.4508497187474
0.316,42.21639627510077
0.317,43.81533400219318
0.318,45.241352623300976
0.319,46.48882429441256
0.32,47.55282581475767
0.321,48.42915805643154
0.322,49.11436253643442
0.323,49.605735065723884
0.324,49.90133642141358
0.325,50.0
0.326,49.901336421413575
0.327,49.60573506572389
0.328,49.114362536434435
0.329,48.42915805643156
0.33,47.552825814757696
0.331,46.48882429441259
0.332,45.24135262330093
0.333,43.81533400219314
0.334,42.21639627510072
0.335,40.45084971874734
0.336,38.52566213878944
0.337,36.44843137107057
0.338,34.22735529643444
0.339,31.871199487434502
0.34,29.38926261462369
0.341,26.79133974894973
0.342,24.087683705085674
0.343,21.28896457825356
0.34400000000000003,18.406227634233836
0.34500000000000003,15.450849718747328
0.34600000000000003,12.434494358242713
0.34700000000000003,9.36906572928622
0.34800000000000003,6.26666167821522
0.34900000000000003,3.1395259764656935
0.35000000000000003,-1.347730459698677e-13
0.35100000000000003,-3.1395259764657855
0.352,-6.266661678215134
0.353,-9.369065729286136
0.354,-12.43449435824263
0.355,-15.450849718747245
0.356,-18.40622763423376
0.357,-21.28896457825348
0.358,-24.087683705085755
0.359,-26.79133974894981
0.36,-29.389262614623625
0.361,-31.87119948743444
0.362,-34.227355296434375
0.363,-36.44843137107051
0.364,-38.525662138789386
0.365,-40.45084971874729
0.366,-42.21639627510067
0.367,-43.81533400219318
0.368,-45.241352623300976
0.369,-46.48882429441256
0.37,-47.55282581475767
0.371,-48.42915805643154
0.372,-49.11436253643442
0.373,-49.60573506572388
0.374,-49.901336421413575
0.375,-50.0
0.376,-49.901336421413575
0.377,-49.60573506572389
0.378,-49.114362536434435
0.379,-48.42915805643157
0.38,-47.552825814757696
0.381,-46.488824294412595
0.382,-45.24135262330101
0.383,-43.81533400219323
0.384,-42.21639627510072
0.385,-40.45084971874734
0.386,-38.52566213878944
0.387,-36.44843137107057
0.388,-34.22735529643444
0.389,-31.87119948743451
0.39,-29.389262614623696
0.391,-26.791339748949888
0.392,-24.087683705085837
0.393,-21.288964578253562
0.394,-18.406227634233844
0.395,-15.450849718747333
0.396,-12.434494358242718
0.397,-9.369065729286227
0.398,-6.266661678215225
0.399,-3.1395259764656998
0.4,-4.898587196589413e-14
0.401,3.1395259764657792
0.402,6.266661678215304
0.403,9.369065729286305
0.404,12.434494358242794
0.405,15.450849718747408
0.406,18.406227634233918
0.40700000000000003,21.288964578253637
0.40800000000000003,24.08768370508575
0.40900000000000003,26.791339748949806
0.41000000000000003,29.389262614623757
0.41100000000000003,31.87119948743457
0.41200000000000003,34.227355296434496
0.41300000000000003,36.448431371070626
0.41400000000000003,38.5256621387895
0.41500000000000004,40.45084971874739
0.41600000000000004,42.21639627510076
0.417,43.8153340021931
0.418,45.2413526233009
0.419,46.48882429441256
0.42,47.55282581475767
0.421,48.42915805643154
0.422,49.11436253643442
0.423,49.60573506572388
0.424,49.901336421413575
0.425,50.0
0.426,49.90133642141359
0.427,49.60573506572389
0.428,49.114362536434435
0.429,48.42915805643157
0.43,47.552825814757696
0.431,46.488824294412595
0.432,45.24135262330101
0.433,43.81533400219323
0.434,42.21639627510082
0.435,40.450849718747456
0.436,38.52566213878945
0.437,36.448431371070576
0.438,34.227355296434446
0.439,31.871199487434517
0.44,29.3892626146237
0.441,26.791339748949895
0.442,24.08768370508584
0.443,21.28896457825373
0.444,18.406227634233847
0.445,15.450849718747339
0.446,12.434494358242723
0.447,9.369065729286232
0.448,6.266661678215231
0.449,3.139525976465706
0.45,5.510910596163089e-14
0.451,-3.139525976465596
0.452,-6.266661678215122
0.453,-9.3690657292863
0.454,-12.43449435824279
0.455,-15.450849718747403
0.456,-18.40622763423391
0.457,-21.28896457825363
0.458,-24.087683705085748
0.459,-26.7913397489498
0.46,-29.38926261462361
0.461,-31.871199487434428
0.462,-34.227355296434496
0.463,-36.44843137107062
0.464,-38.52566213878949
0.465,-40.45084971874739
0.466,-42.216396275100756
0.467,-43.81533400219318
0.468,-45.24135262330097
0.46900000000000003,-46.48882429441256
0.47000000000000003,-47.55282581475772
0.47100000000000003,-48.42915805643158
0.47200000000000003,-49.114362536434456
0.47300000000000003,-49.6057350657239
0.47400000000000003,-49.90133642141358
0.47500000000000003,-50.0
0.47600000000000003,-49.901336421413575
0.47700000000000004,-49.60573506572389
0.47800000000000004,-49.114362536434435
0.47900000000000004,-48.42915805643152
0.48,-47.552825814757696
0.481,-46.4888242944126
0.482,-45.24135262330102
0.483,-43.81533400219323
0.484,-42.21639627510083
0.485,-40.450849718747456
0.486,-38.52566213878957
0.487,-36.4484313710707
0.488,-34.227355296434446
0.489,-31.87119948743452
0.49,-29.389262614623707
0.491,-26.791339748949895
0.492,-24.087683705085848
0.493,-21.288964578253736
0.494,-18.40622763423402
0.495,-15.450849718747515
0.496,-12.43449435824273
0.497,-9.369065729286238
0.498,-6.266661678215238
0.499,-3.1395259764657126
0.5,-6.123233995736766e-14
0.501,3.1395259764655896
0.502,6.266661678215116
0.503,9.369065729286119
0.504,12.434494358242612
0.505,15.450849718747397
0.506,18.406227634233908
0.507,21.288964578253626
0.508,24.08768370508574
0.509,26.791339748949795
0.51,29.38926261462375
0.511,31.871199487434428
0.512,34.22735529643449
0.513,36.4484313710705
0.514,38.52566213878949
0.515,40.450849718747286
0.516,42.216396275100756
0.517,43.81533400219309
0.518,45.24135262330096
0.519,46.488824294412616
0.52,47.55282581475766
0.521,48.42915805643158
0.522,49.11436253643441
0.523,49.6057350657239
0.524,49.90133642141357
0.525,50.0
0.526,49.90133642141357
0.527,49.60573506572389
0.528,49.114362536434406
0.529,48.42915805643157
0.53,47.55282581475765
0.531,46.4888242944126
0.532,45.24135262330095
0.533,43.81533400219323
0.534,42.216396275100735
0.535,40.45084971874725
0.536,38.52566213878946
0.537,36.44843137107046
0.538,34.22735529643445
0.539,31.87119948743439
0.54,29.38926261462371
0.541,26.79133974894975
0.542,24.08768370508585
0.543,21.28896457825358
0.544,18.406227634233694
0.545,15.45084971874735
0.546,12.434494358242564
0.547,9.369065729286245
0.548,6.266661678215067
0.549,3.139525976465718
0.55,-1.1028010998692061e-13
0.551,-3.139525976465584
0.552,-6.266661678215287
0.553,-9.369065729286461
0.554,-12.434494358242777
0.555,-15.45084971874756
0.556,-18.4062276342339
0.557,-21.28896457825378
0.558,-24.087683705085734
0.559,-26.791339748949937
0.56,-29.3892626146236
0.561,-31.871199487434552
0.562,-34.22735529643462
0.5630000000000001,-36.44843137107062
0.5640000000000001,-38.5256621387896
0.5650000000000001,-40.450849718747385
0.5660000000000001,-42.21639627510085
0.5670000000000001,-43.815334002193175
0.5680000000000001,-45.24135262330104
0.5690000000000001,-46.48882429441255
0.5700000000000001,-47.55282581475771
0.5710000000000001,-48.42915805643162
0.5720000000000001,-49.11436253643445
0.5730000000000001,-49.60573506572392
0.5740000000000001,-49.901336421413575
0.5750000000000001,-50.0
0.5760000000000001,-49.901336421413575
0.577,-49.60573506572391
0.578,-49.11436253643444
0.579,-48.42915805643162
0.58,-47.552825814757696
0.581,-46.488824294412666
0.582,-45.241352623301026
0.583,-43.815334002193325
0.584,-42.216396275100834
0.585,-40.45084971874757
0.586,-38.52566213878957
0.587,-36.44843137107059
0.588,-34.227355296434595
0.589,-31.871199487434527
0.59,-29.389262614623856
0.591,-26.791339748949905
0.592,-24.087683705086015
0.593,-21.288964578253747
0.594,-18.406227634234195
0.595,-15.450849718747525
0.596,-12.434494358242741
0.597,-9.369065729286426
0.598,-6.266661678215249
0.599,-3.139525976465902
0.6,-7.347880794884119e-14
0.601,3.1395259764654
0.602,6.266661678215104
0.603,9.369065729285932
0.604,12.434494358242599
0.605,15.450849718747387
0.606,18.40622763423373
0.607,21.288964578253612
0.608,24.087683705085574
0.609,26.79133974894978
0.61,29.38926261462345
0.611,31.871199487434414
0.612,34.227355296434226
0.613,36.44843137107049
0.614,38.52566213878948
0.615,40.45084971874727
0.616,42.216396275100756
0.617,43.81533400219308
0.618,45.24135262330096
0.619,46.48882429441248
0.62,47.552825814757654
0.621,48.429158056431575
0.622,49.11436253643441
0.623,49.6057350657239
0.624,49.90133642141357
0.625,50.0
0.626,49.90133642141359
0.627,49.60573506572389
0.628,49.11436253643448
0.629,48.42915805643157
0.63,47.55282581475765
0.631,46.48882429441261
0.632,45.24135262330095
0.633,43.81533400219324
0.634,42.216396275100735
0.635,40.45084971874747
0.636,38.52566213878947
0.637,36.44843137107072
0.638,34.22735529643447
0.639,31.871199487434392
0.64,29.389262614623718
0.641,26.79133974894976
0.642,24.087683705085862
0.643,21.28896457825359
0.644,18.40622763423404
0.645,15.450849718747362
0.646,12.434494358242919
0.647,9.369065729286257
0.648,6.26666167821508
0.649,3.1395259764657304
0.65,-9.803364199544709e-14
0.651,-3.1395259764655714
0.652,-6.266661678215274
0.653,-9.3690657292861
0.654,-12.434494358242764
0.655,-15.450849718747211
0.656,-18.40622763423389
0.657,-21.28896457825377
0.658,-24.087683705085723
0.659,-26.791339748949927
0.66,-29.38926261462359
0.661,-31.87119948743455
0.662,-34.22735529643435
0.663,-36.448431371070605
0.664,-38.52566213878959
0.665,-40.45084971874737
0.666,-42.21639627510084
0.667,-43.81533400219317
0.668,-45.24135262330103
0.669,-46.488824294412545
0.67,-47.55282581475771
0.671,-48.42915805643153
0.672,-49.11436253643445
0.673,-49.60573506572392
0.674,-49.901336421413575
0.675,-50.0
0.676,-49.901336421413575
0.677,-49.60573506572387
0.678,-49.11436253643444
0.679,-48.429158056431525
0.68,-47.5528258147577
0.681,-46.48882429441254
0.682,-45.24135262330088
0.683,-43.81533400219316
0.684,-42.21639627510065
0.685,-40.450849718747364
0.686,-38.52566213878936
0.687,-36.4484313710706
0.6880000000000001,-34.22735529643434
0.6890000000000001,-31.871199487434538
0.6900000000000001,-29.38926261462358
0.6910000000000001,-26.791339748949618
0.6920000000000001,-24.087683705085713
0.6930000000000001,-21.288964578253434
0.6940000000000001,-18.40622763423388
0.6950000000000001,-15.450849718747198
0.6960000000000001,-12.434494358242754
0.6970000000000001,-9.369065729286088
0.6980000000000001,-6.266661678215262
0.6990000000000001,-3.139525976465559
0.7000000000000001,2.695460919397354e-13
0.7010000000000001,3.139525976465743
0.7020000000000001,6.266661678215445
0.7030000000000001,9.36906572928627
0.704,12.434494358242587
0.705,15.450849718747037
0.706,18.40622763423372
0.707,21.2889645782536
0.708,24.087683705085563
0.709,26.79133974894977
0.71,29.38926261462344
0.711,31.871199487434403
0.712,34.22735529643421
0.713,36.44843137107048
0.714,38.525662138789244
0.715,40.450849718747264
0.716,42.21639627510074
0.717,43.815334002193076
0.718,45.241352623300955
0.719,46.48882429441248
0.72,47.55282581475765
0.721,48.42915805643149
0.722,49.114362536434406
0.723,49.60573506572385
0.724,49.90133642141357
0.725,50.0
0.726,49.90133642141359
0.727,49.60573506572389
0.728,49.11436253643448
0.729,48.429158056431575
0.73,47.55282581475776
0.731,46.48882429441261
0.732,45.241352623301104
0.733,43.81533400219325
0.734,42.21639627510074
0.735,40.45084971874748
0.736,38.52566213878947
0.737,36.448431371070726
0.738,34.22735529643447
0.739,31.871199487434676
0.74,29.38926261462373
0.741,26.791339748950072
0.742,24.087683705085876
0.743,21.2889645782536
0.744,18.40622763423405
0.745,15.450849718747373
0.746,12.434494358242931
0.747,9.36906572928627
0.748,6.266661678215445
0.749,3.139525976465743
0.75,2.694841938760765e-13
0.751,-3.139525976465559
0.752,-6.266661678215262
0.753,-9.369065729286088
0.754,-12.434494358242754
0.755,-15.450849718747198
0.756,-18.40622763423388
